# Energy, TeV | dE- | dE+ | Flux, 1/TeV/cm2/s | dF- | dF+ | UL
# Norm: 1.73e-12 +/- 6.65e-14
# Index: 2.511 +/- 0.042
# E0 = 0.954 TeV
# CovMatrix = 
# [[4.42384540e-27 1.47738382e-16]
#  [1.47738382e-16 1.78253286e-03]]
# 
# 
3.426e-01 8.158e-02 4.053e-02 9.003e-12 2.070e-12 2.232e-12 -1.000e+00
4.672e-01 8.410e-02 9.512e-02 8.187e-12 7.928e-13 8.232e-13 -1.000e+00
6.828e-01 1.205e-01 1.426e-01 4.910e-12 3.656e-13 3.784e-13 -1.000e+00
9.966e-01 1.712e-01 2.150e-01 2.368e-12 1.733e-13 1.801e-13 -1.000e+00
1.460e+00 2.481e-01 3.186e-01 7.121e-13 6.868e-14 7.214e-14 -1.000e+00
2.136e+00 3.577e-01 4.742e-01 2.729e-13 3.156e-14 3.355e-14 -1.000e+00
3.139e+00 5.292e-01 6.918e-01 4.727e-14 1.064e-14 1.181e-14 -1.000e+00
4.587e+00 7.559e-01 1.036e+00 2.069e-14 5.212e-15 5.958e-15 -1.000e+00
6.760e+00 1.136e+00 1.494e+00 5.967e-15 2.139e-15 2.606e-15 -1.000e+00
9.893e+00 1.639e+00 2.222e+00 2.015e-15 9.324e-16 1.218e-15 -1.000e+00
1.452e+01 2.405e+00 3.263e+00 1.836e-15 6.531e-16 8.392e-16 -1.000e+00
2.130e+01 3.522e+00 4.797e+00 5.052e-16 2.633e-16 3.858e-16 -1.000e+00
3.145e+01 5.346e+00 6.865e+00 2.369e-16 1.406e-16 2.246e-16 -1.000e+00
